## X [m] Density [kg/m^3]
0.005 1
0.015 1
0.025 1
0.035 1
0.045 1
0.055 1
0.065 1
0.075 1
0.085 1
0.095 0.947325
0.105 0.878333
0.115 0.813421
0.125 0.752405
0.135 0.695106
0.145 0.641353
0.155 0.590978
0.165 0.543819
0.175 0.49972
0.185 0.458529
0.195 0.4201
0.205 0.384293
0.215 0.350969
0.225 0.319999
0.235 0.291254
0.245 0.264613
0.255 0.239959
0.265 0.217177
0.275 0.196159
0.285 0.176802
0.295 0.159003
0.305 0.142668
0.315 0.127703
0.325 0.114022
0.335 0.101539
0.345 0.090174
0.355 0.0798503
0.365 0.0704946
0.375 0.0620372
0.385 0.0544116
0.395 0.0475551
0.405 0.0414079
0.415 0.0359135
0.425 0.0310184
0.435 0.0266723
0.445 0.0228276
0.455 0.0218521
0.465 0.0218521
0.475 0.0218521
0.485 0.0218521
0.495 0.0218521
0.505 0.0218521
0.515 0.0218521
0.525 0.0218521
0.535 0.0218521
0.545 0.0218521
0.555 0.0228276
0.565 0.0266723
0.575 0.0310184
0.585 0.0359135
0.595 0.0414079
0.605 0.0475551
0.615 0.0544116
0.625 0.0620372
0.635 0.0704946
0.645 0.0798503
0.655 0.090174
0.665 0.101539
0.675 0.114022
0.685 0.127703
0.695 0.142668
0.705 0.159003
0.715 0.176802
0.725 0.196159
0.735 0.217177
0.745 0.239959
0.755 0.264613
0.765 0.291254
0.775 0.319999
0.785 0.350969
0.795 0.384293
0.805 0.4201
0.815 0.458529
0.825 0.49972
0.835 0.543819
0.845 0.590978
0.855 0.641353
0.865 0.695106
0.875 0.752405
0.885 0.813421
0.895 0.878333
0.905 0.947325
0.915 1
0.925 1
0.935 1
0.945 1
0.955 1
0.965 1
0.975 1
0.985 1
0.995 1
