## X [m] Internal-energy [J]
0.005 1
0.015 1
0.025 1
0.035 1
0.045 1
0.055 1
0.065 1
0.075 1
0.085 1
0.095 0.978587
0.105 0.949432
0.115 0.920717
0.125 0.892443
0.135 0.86461
0.145 0.837219
0.155 0.810268
0.165 0.783758
0.175 0.757688
0.185 0.73206
0.195 0.706873
0.205 0.682126
0.215 0.657821
0.225 0.633956
0.235 0.610533
0.245 0.58755
0.255 0.565008
0.265 0.542907
0.275 0.521247
0.285 0.500028
0.295 0.47925
0.305 0.458913
0.315 0.439016
0.325 0.419561
0.335 0.400546
0.345 0.381973
0.355 0.36384
0.365 0.346148
0.375 0.328898
0.385 0.312088
0.395 0.295719
0.405 0.279791
0.415 0.264304
0.425 0.249257
0.435 0.234652
0.445 0.220488
0.455 0.216669
0.465 0.216669
0.475 0.216669
0.485 0.216669
0.495 0.216669
0.505 0.216669
0.515 0.216669
0.525 0.216669
0.535 0.216669
0.545 0.216669
0.555 0.220488
0.565 0.234652
0.575 0.249257
0.585 0.264304
0.595 0.279791
0.605 0.295719
0.615 0.312088
0.625 0.328898
0.635 0.346148
0.645 0.36384
0.655 0.381973
0.665 0.400546
0.675 0.419561
0.685 0.439016
0.695 0.458913
0.705 0.47925
0.715 0.500028
0.725 0.521247
0.735 0.542907
0.745 0.565008
0.755 0.58755
0.765 0.610533
0.775 0.633956
0.785 0.657821
0.795 0.682126
0.805 0.706873
0.815 0.73206
0.825 0.757688
0.835 0.783758
0.845 0.810268
0.855 0.837219
0.865 0.86461
0.875 0.892443
0.885 0.920717
0.895 0.949432
0.905 0.978587
0.915 1
0.925 1
0.935 1
0.945 1
0.955 1
0.965 1
0.975 1
0.985 1
0.995 1
